# time = 3.761611e+14 [s] 
# r                  dr                 dV                 Density            Pressure           Velocity           Z
  2.1304517832e+18   2.1304517832e+18   4.0504543152e+55   2.9077248216e-30   7.9164673837e-12   0.0000000000e+00   9.7339110550e-02 
  3.3929390605e+18   1.2624872773e+18   1.2310807253e+56   2.9077248216e-30   7.9164673837e-12  -2.5248513128e+06   9.7339110550e-02 
  3.8699040437e+18   4.7696498321e+17   7.9154131400e+55   3.4951626350e-30   7.9523313685e-12  -3.3711814641e+06   9.7339110550e-02 
  4.2178266144e+18   3.4792257064e+17   7.1540777276e+55   4.9563128635e-30   7.9353539528e-12  -1.3603448036e+06   9.7339110550e-02 
  4.6429967368e+18   4.2517012244e+17   1.0495277936e+56   7.4455446616e-30   7.9371435902e-12  -5.2669762717e+05   9.7339110550e-02 
  5.1319285671e+18   4.8893183031e+17   1.4688826968e+56   9.9689255024e-30   7.9466481297e-12  -5.6147802821e+05   9.7339110550e-02 
  5.8113987129e+18   6.7947014576e+17   2.5596274598e+56   1.2558329097e-29   7.9664196115e-12  -1.5077872175e+06   9.7339110550e-02 
  6.5962187357e+18   7.8482002284e+17   3.8008046452e+56   1.5948755727e-29   8.0147318738e-12  -3.5727938509e+06   9.7339110550e-02 
  7.5211800129e+18   9.2496127716e+17   5.7996767132e+56   1.9289782001e-29   8.0939869598e-12  -4.9094665750e+06   9.7339110550e-02 
  8.9721044747e+18   1.4509244619e+18   1.2431623348e+57   2.2553521217e-29   8.2276829391e-12  -2.6600823553e+06   9.7339110550e-02 
  1.1048842959e+19   2.0767384846e+18   2.6245554534e+57   2.7094626763e-29   8.3669437188e-12   3.5863925772e+05   9.7339110550e-02 
  1.3530911614e+19   2.4820686548e+18   4.7270741111e+57   3.4761454612e-29   7.8158823327e-12  -3.8087827316e+07   9.7339110550e-02 
  1.6705311680e+19   3.1744000660e+18   9.1508054613e+57   3.6320435394e-29   4.2728972825e-12  -2.2203166230e+08   9.7339110550e-02 
  2.0425710523e+19   3.7203988432e+18   1.6168290406e+58   3.5276965199e-29   1.8697673994e-12  -3.3936413753e+08   9.7339110550e-02 
  2.4269198207e+19   3.8434876833e+18   2.4180244414e+58   4.1170112080e-29   1.3217136578e-12  -3.4730265115e+08   9.7339110550e-02 
  2.8112056068e+19   3.8428578613e+18   3.3184435220e+58   5.1411437377e-29   1.1005076101e-12  -3.3345789494e+08   9.7339110550e-02 
  3.2072668075e+19   3.9606120072e+18   4.5134765798e+58   6.5942861037e-29   1.0226442560e-12  -3.1132822452e+08   9.7339110550e-02 
  3.6418141682e+19   4.3454736069e+18   6.4125968505e+58   8.4483877514e-29   1.0324316436e-12  -2.8604465890e+08   9.7339110550e-02 
  4.1447109380e+19   5.0289676981e+18   9.5922288559e+58   1.0406187645e-28   1.1056372371e-12  -2.5855429240e+08   9.7339110550e-02 
  4.7444449894e+19   5.9973405134e+18   1.4910358657e+59   1.2061595535e-28   1.2269015667e-12  -2.2875062638e+08   9.7339110550e-02 
  5.4794973653e+19   7.3505237593e+18   2.4179792888e+59   1.3287086988e-28   1.4035621625e-12  -1.9646675246e+08   9.7339110550e-02 
  6.3777445322e+19   8.9824716691e+18   3.9750544106e+59   1.4121004083e-28   1.5844363004e-12  -1.6497788379e+08   9.7339110550e-02 
  7.5183141599e+19   1.1405696277e+19   6.9347231544e+59   1.5096334035e-28   1.7120330599e-12  -1.3718261823e+08   9.7339110550e-02 
  8.0844626798e+19   5.6614851990e+18   4.3318618704e+59   1.6638056844e-28   1.7365116017e-12  -1.2143784918e+08   9.7339110550e-02 
  8.5276811025e+19   4.4321842268e+18   3.8434574452e+59   1.7200268013e-28   1.7453209013e-12  -1.1387203836e+08   9.7339110550e-02 
  9.5380767817e+19   1.0103956792e+19   1.0370658099e+60   1.6804524377e-28   1.7425060429e-12  -1.0516558417e+08   9.7339110550e-02 
  1.0239009525e+20   7.0093274373e+18   8.6165346989e+59   1.7827583293e-28   1.7052044875e-12  -9.6096542467e+07   9.7339110550e-02 
  1.0756372679e+20   5.1736315374e+18   7.1660664788e+59   1.8862634434e-28   1.6625461918e-12  -9.0781646719e+07   9.7339110550e-02 
  1.1144838834e+20   3.8846615496e+18   5.8544335421e+59   1.8342948658e-28   1.6285082992e-12  -8.7363685749e+07   9.7339110550e-02 
  1.2333011410e+20   1.1881725759e+19   2.0592859940e+60   1.6756096811e-28   1.5662057148e-12  -8.2524127003e+07   9.7339110550e-02 
  1.3169148746e+20   8.3613733589e+18   1.7089801503e+60   1.7486945904e-28   1.4918819004e-12  -7.6769605913e+07   9.7339110550e-02 
  1.3760890144e+20   5.9174139761e+18   1.3484215277e+60   1.8378654721e-28   1.4514481264e-12  -7.2749299211e+07   9.7339110550e-02 
  1.4348212360e+20   5.8732221684e+18   1.4580870629e+60   1.8476294101e-28   1.4281070177e-12  -6.9295044995e+07   9.7339110550e-02 
  1.4898815992e+20   5.5060363182e+18   1.4798024457e+60   1.7804061429e-28   1.4156173024e-12  -6.5800025181e+07   9.7339110550e-02 
  1.6360370066e+20   1.4615540737e+19   4.4898977390e+60   1.6407578037e-28   1.3908980915e-12  -6.0290678694e+07   9.7339110548e-02 
  1.7347499628e+20   9.8712956195e+18   3.5246076246e+60   1.5898524866e-28   1.3503632583e-12  -5.4119197058e+07   9.7339110544e-02 
  1.8219028152e+20   8.7152852416e+18   3.4641870349e+60   1.5324288552e-28   1.3132023844e-12  -4.9868012294e+07   9.7339110530e-02 
  1.9056160054e+20   8.3713190251e+18   3.6547398123e+60   1.5231097992e-28   1.2794979211e-12  -4.5929468999e+07   9.7339110483e-02 
  2.0071829018e+20   1.0156689636e+19   4.8862382895e+60   1.5628422862e-28   1.2420137878e-12  -4.1299581878e+07   9.7339110339e-02 
  2.0859426812e+20   7.8759779396e+18   4.1458930952e+60   1.6228375297e-28   1.2013526138e-12  -3.6298884405e+07   9.7339109966e-02 
  2.1566815283e+20   7.0738847094e+18   4.0005271734e+60   1.6175057068e-28   1.1681788557e-12  -3.2051568998e+07   9.7339108783e-02 
  2.2240427109e+20   6.7361182576e+18   4.0614923030e+60   1.4756952653e-28   1.1435729117e-12  -2.8173066103e+07   9.7339103243e-02 
  2.3825520199e+20   1.5850930906e+19   1.0571485671e+61   1.2951889869e-28   1.1087718870e-12  -2.2635201969e+07   9.7339079765e-02 
  2.5154660710e+20   1.3291405104e+19   1.0020009331e+61   1.2262128867e-28   1.0671027032e-12  -1.6420177966e+07   9.7339007771e-02 
  2.6622845268e+20   1.4681845580e+19   1.2368845396e+61   1.2271125457e-28   1.0418311141e-12  -1.1279006863e+07   9.7338769447e-02 
  2.7712617605e+20   1.0897723378e+19   1.0109056494e+61   1.2748984028e-28   1.0334240790e-12  -6.8382694400e+06   9.7338151888e-02 
  2.8663014030e+20   9.5039642498e+18   9.4902717557e+60   1.3115011489e-28   1.0317745460e-12  -3.8937766989e+06   9.7335982359e-02 
  2.9505619283e+20   8.4260525232e+18   8.9574033307e+60   1.3958372843e-28   1.0322084556e-12  -1.6537160061e+06   9.7329416966e-02 
  3.0286220761e+20   7.8060147789e+18   8.7677418117e+60   1.6199063804e-28   1.0340318563e-12   2.2939258998e+05   9.7310354452e-02 
  3.0808682490e+20   5.2246172918e+18   6.1266758819e+60   2.0406340426e-28   1.0323641867e-12   1.9271992610e+06   9.7260181263e-02 
  3.1769109860e+20   9.6042737041e+18   1.1816503147e+61   2.3669243824e-28   1.0296714777e-12   4.1164408800e+06   9.7102364370e-02 
  3.2615446742e+20   8.4633688197e+18   1.1022537160e+61   2.4328534913e-28   1.0308005662e-12   6.9020701360e+06   9.6708907101e-02 
  3.3018420614e+20   4.0297387183e+18   5.4536618695e+60   1.9281575413e-28   1.0363710882e-12   8.7018562239e+06   9.5619583002e-02 
  3.3208769312e+20   1.9034869813e+18   2.6228510946e+60   1.1365860380e-28   1.0424946293e-12   9.6237300998e+06   9.4490628725e-02 
  3.3486034830e+20   2.7726551797e+18   3.8746478698e+60   7.2894230993e-29   1.0379659605e-12   1.0114279449e+07   9.9481067361e-02 
  3.4120544802e+20   6.3450997195e+18   9.1112718558e+60   6.2746968112e-29   1.0425260654e-12   1.0998365938e+07   1.0172750566e-01 
  3.4896346877e+20   7.7580207509e+18   1.1609937799e+61   6.4161491303e-29   1.0493330378e-12   1.2820013078e+07   1.0189966685e-01 
  3.5264568197e+20   3.6822132001e+18   5.6944696156e+60   7.4700305377e-29   1.0534313920e-12   1.4154694445e+07   1.0191618840e-01 
  3.5631423517e+20   3.6685531973e+18   5.7928453429e+60   8.4127684648e-29   1.0561276250e-12   1.4916378276e+07   1.0192574643e-01 
  3.6338825176e+20   7.0740165857e+18   1.1511606582e+61   9.5522022418e-29   1.0610614978e-12   1.5851286490e+07   1.0193042314e-01 
  3.6713834996e+20   3.7500982029e+18   6.2873610230e+60   1.0653352095e-28   1.0660834923e-12   1.6665353025e+07   1.0193338807e-01 
  3.6942640130e+20   2.2880513426e+18   3.8997691409e+60   1.1679164237e-28   1.0698992510e-12   1.7104681781e+07   1.0193567636e-01 
  3.7356309362e+20   4.1366923239e+18   7.1741908759e+60   1.2712321155e-28   1.0718639587e-12   1.7608418786e+07   1.0193572065e-01 
  3.8313066808e+20   9.5675744580e+18   1.7211359397e+61   1.4376621257e-28   1.0775052012e-12   1.8502052499e+07   1.0192832908e-01 
  3.8833252951e+20   5.2018614281e+18   9.7262551760e+60   1.8331626112e-28   1.0905952723e-12   1.9095535867e+07   1.0189944159e-01 
  3.9062467946e+20   2.2921499507e+18   4.3693954635e+60   2.2960697862e-28   1.1278642472e-12   1.7802374572e+07   1.0184039306e-01 
  3.9365818406e+20   3.0335046030e+18   5.8619505212e+60   2.7377658655e-28   1.2357596449e-12   1.3777816130e+07   1.0156665247e-01 
  3.9995314204e+20   6.2949579765e+18   1.2455682534e+61   3.1938765376e-28   1.7099813673e-12  -1.6459131713e+06   9.9891056695e-02 
  4.0981069913e+20   9.8575570932e+18   2.0307543223e+61   3.8575503060e-28   3.3397250326e-12  -3.8662576195e+07   9.2183104395e-02 
  4.1081651491e+20   1.0058157745e+18   2.1279448246e+60   4.0202238308e-28   4.0260099988e-12  -5.3573483805e+07   8.6624308585e-02 
  4.1263876967e+20   1.8222547627e+18   3.8818586521e+60   3.5936264187e-28   3.9824168453e-12  -5.2737970793e+07   8.8652729596e-02 
  4.1488467503e+20   2.2459053593e+18   4.8317338518e+60   2.9664042104e-28   3.9251914626e-12  -5.2050280348e+07   1.2939845044e-01 
  4.1645160933e+20   1.5669342974e+18   3.4021593069e+60   2.6139560223e-28   3.8847974193e-12  -5.1371479996e+07   1.8631027330e-01 
  4.2096050265e+20   4.5088933221e+18   9.9335047985e+60   2.5196594019e-28   3.8424019563e-12  -4.9818527640e+07   2.0278887217e-01 
  4.2222599800e+20   1.2654953517e+18   2.8265589203e+60   2.7338918862e-28   3.8148853150e-12  -4.8165796441e+07   2.0595478846e-01 
  4.2251090047e+20   2.8490246428e+17   6.3868839400e+59   3.0014527554e-28   3.8093774736e-12  -4.7690492938e+07   2.0612405990e-01 
  4.2509005511e+20   2.5791546394e+18   5.8211859236e+60   3.1647818806e-28   3.8022129019e-12  -4.6739887473e+07   2.0613457651e-01 
  4.2620100025e+20   1.1109451452e+18   2.5292914453e+60   3.3124905925e-28   3.7942633871e-12  -4.5516181986e+07   2.0613002486e-01 
  4.2960224401e+20   3.4012437595e+18   7.8259627116e+60   3.3866286932e-28   3.7600138820e-12  -4.4748284348e+07   2.0608539385e-01 
  4.3135473628e+20   1.7524922680e+18   4.0810271683e+60   3.4868664300e-28   3.6881416058e-12  -4.4241193774e+07   2.0591096497e-01 
  4.3574211266e+20   4.3873763776e+18   1.0363195414e+61   3.5366124659e-28   3.5972218486e-12  -4.4236901551e+07   2.0544418821e-01 
  4.3847029540e+20   2.7281827447e+18   6.5502620229e+60   3.6054870670e-28   3.5065629140e-12  -4.3548954013e+07   2.0468321374e-01 
  4.4265504189e+20   4.1847464862e+18   1.0206989571e+61   3.6402942044e-28   3.4672619846e-12  -4.1914959481e+07   2.0248798175e-01 
  4.4546453942e+20   2.8094975296e+18   6.9618212293e+60   3.7116962265e-28   3.4520771290e-12  -3.9690491812e+07   1.9810875709e-01 
  4.4791121447e+20   2.4466750569e+18   6.1347317337e+60   3.7080070751e-28   3.4577751643e-12  -3.7790838679e+07   1.9378100375e-01 
  4.5441495645e+20   6.5037419752e+18   1.6635957567e+61   3.5843257441e-28   3.5043331077e-12  -3.3631626010e+07   1.8604669049e-01 
  4.5604439493e+20   1.6294384793e+18   4.2433555839e+60   3.3484793906e-28   3.5412033828e-12  -2.9943861022e+07   2.1213125381e-01 
  4.5859096483e+20   2.5465699013e+18   6.6927186892e+60   2.9247435902e-28   3.5662402529e-12  -2.7994804840e+07   2.4394183580e-01 
  4.6648711068e+20   7.8961458535e+18   2.1229137894e+61   2.6865832173e-28   3.5899441454e-12  -2.3897160717e+07   2.4809526624e-01 
  4.6848615137e+20   1.9990406853e+18   5.4899773186e+60   2.7922755077e-28   3.5952193719e-12  -2.0515390241e+07   2.4848809969e-01 
  4.6919221925e+20   7.0606788400e+17   1.9503125216e+60   2.9284964334e-28   3.6029313989e-12  -1.9614749854e+07   2.4850748706e-01 
  4.7004904191e+20   8.5682266302e+17   2.3746262497e+60   2.9342839650e-28   3.6034255380e-12  -1.9032202221e+07   2.4822992507e-01 
  4.7820645747e+20   8.1574155550e+18   2.3044320807e+61   2.9197928522e-28   3.6118386720e-12  -1.6250248034e+07   2.4589494163e-01 
  4.8243273399e+20   4.2262765197e+18   1.2252682643e+61   2.9382183791e-28   3.6147705462e-12  -1.2658926103e+07   2.3715215108e-01 
  4.8648852227e+20   4.0557882853e+18   1.1962023544e+61   2.9769436373e-28   3.6128093410e-12  -1.0476045228e+07   2.2249414555e-01 
  4.9065257020e+20   4.1640479254e+18   1.2490584901e+61   3.0050846074e-28   3.6049164071e-12  -8.4412338628e+06   2.1746664906e-01 
  4.9501652466e+20   4.3639544563e+18   1.3319723184e+61   3.0911293677e-28   3.5951317333e-12  -6.4076101680e+06   2.1289906186e-01 
  4.9591567644e+20   8.9915178674e+17   2.7737728074e+60   3.1751381620e-28   3.5871560092e-12  -5.1260924647e+06   2.4704782453e-01 
  4.9784439275e+20   1.9287163019e+18   5.9838659164e+60   3.2289919220e-28   3.5831608780e-12  -4.4475150421e+06   3.0849207158e-01 
  4.9888779510e+20   1.0434023523e+18   3.2565579399e+60   3.2738926704e-28   3.5782702028e-12  -3.7175722266e+06   3.2046045382e-01 
  4.9991804520e+20   1.0302500998e+18   3.2289018084e+60   3.3006420735e-28   3.5748690662e-12  -3.2327029365e+06   3.2253344681e-01 
  5.0114734609e+20   1.2293008897e+18   3.8701979757e+60   3.2912076012e-28   3.5726455796e-12  -2.7117217674e+06   3.2202080104e-01 
  5.0410870840e+20   2.9613623115e+18   9.4014765874e+60   3.2734464232e-28   3.5701996172e-12  -1.8531293709e+06   3.1673355483e-01 
  5.1075838261e+20   6.6496742073e+18   2.1516656943e+61   3.3026291953e-28   3.5591504533e-12  -2.2605532679e+05   2.9242518569e-01 
  5.1669573841e+20   5.9373558005e+18   1.9691221561e+61   3.6100790442e-28   3.5605755199e-12   1.7717813171e+06   2.4451601105e-01 
  5.2193254564e+20   5.2368072293e+18   1.7747632645e+61   4.4152640667e-28   3.5417172049e-12   2.6127227483e+06   2.0919185589e-01 
  5.2723739207e+20   5.3048464319e+18   1.8345014781e+61   8.5232279547e-28   3.5395516874e-12   2.3275673250e+06   1.2714557499e-01 
  5.2833900669e+20   1.1016146259e+18   3.8561957047e+60   4.9957755592e-27   3.6750022665e-12   1.7287672372e+06   4.0581571940e-02 
  5.3015681603e+20   1.8178093417e+18   6.3984816305e+60   5.8185748495e-23   6.2923602666e-13   1.2461445003e+06   2.0071429514e-02 
  5.3078653613e+20   6.2972009831e+17   2.2268033707e+60   3.1597463142e-22   1.6864327566e-12   1.0597906324e+06   2.0010634069e-02 
  5.3121022321e+20   4.2368707352e+17   1.5012101525e+60   1.7688560721e-22   1.1508353790e-12   9.4122668245e+05   2.0002462304e-02 
  5.3203217206e+20   8.2194885298e+17   2.9191695703e+60   1.9832110800e-23   2.9364928919e-13   6.4945428803e+05   2.0001240918e-02 
  5.3360206998e+20   1.5698979223e+18   5.6006435879e+60   2.9052308564e-24   8.0974334995e-14   8.1958220623e+04   2.0000036548e-02 
  5.3551206914e+20   1.9099991558e+18   6.8585396921e+60   2.2494295864e-24   5.2508630878e-14   2.3633620243e+03   2.0000000000e-02 
  5.3744401785e+20   1.9319487152e+18   6.9873071008e+60   2.2251455148e-24   5.1884898971e-14   4.8344371336e+01   2.0000000000e-02 
  5.3937654581e+20   1.9325279613e+18   7.0398402860e+60   2.2245986467e-24   5.1871666596e-14   9.8401348939e-01   2.0000000000e-02 
  5.4130908548e+20   1.9325396667e+18   7.0905105382e+60   2.2245874882e-24   5.1871395654e-14   1.9726991736e-02   2.0000000000e-02 
  5.4324162538e+20   1.9325399010e+18   7.1413205664e+60   2.2245872645e-24   5.1871390199e-14   3.9292687459e-04   2.0000000000e-02 
  5.4517416529e+20   1.9325399056e+18   7.1923111506e+60   2.2245872601e-24   5.1871390090e-14   8.7934281617e-06   2.0000000000e-02 
  5.4710670519e+20   1.9325399057e+18   7.2434831128e+60   2.2245872600e-24   5.1871390089e-14   1.2959535162e-06   2.0000000000e-02 
  5.4903924510e+20   1.9325399057e+18   7.2948364697e+60   2.2245872600e-24   5.1871390089e-14   1.2116397265e-06   2.0000000000e-02 
  5.5097178500e+20   1.9325399057e+18   7.3463712216e+60   2.2245872600e-24   5.1871390089e-14   1.2293524718e-06   2.0000000000e-02 
  5.5290432491e+20   1.9325399057e+18   7.3980873685e+60   2.2245872600e-24   5.1871390089e-14   1.2066921529e-06   2.0000000000e-02 
  5.5483686482e+20   1.9325399057e+18   7.4499849104e+60   2.2245872600e-24   5.1871390088e-14   1.0769329810e-06   2.0000000000e-02 
  5.5676940472e+20   1.9325399057e+18   7.5020638472e+60   2.2245872600e-24   5.1871390088e-14   7.9515073261e-07   2.0000000000e-02 
  5.5870194463e+20   1.9325399057e+18   7.5543241791e+60   2.2245872600e-24   5.1871390088e-14   3.1948716861e-07   2.0000000000e-02 
  5.6063448453e+20   1.9325399057e+18   7.6067659059e+60   2.2245872600e-24   5.1871390088e-14  -4.0038347551e-08   2.0000000000e-02 
  5.6256702444e+20   1.9325399057e+18   7.6593890277e+60   2.2245872600e-24   5.1871390088e-14  -1.2701783050e-07   2.0000000000e-02 
  5.6449956434e+20   1.9325399057e+18   7.7121935445e+60   2.2245872600e-24   5.1871390088e-14  -1.1899710975e-07   2.0000000000e-02 
  5.6643210425e+20   1.9325399057e+18   7.7651794562e+60   2.2245872600e-24   5.1871390088e-14  -1.1515099028e-07   2.0000000000e-02 
  5.6836464416e+20   1.9325399057e+18   7.8183467630e+60   2.2245872600e-24   5.1871390088e-14  -1.2868872796e-07   2.0000000000e-02 
  5.7029718406e+20   1.9325399057e+18   7.8716954647e+60   2.2245872600e-24   5.1871390088e-14  -1.0560710684e-07   2.0000000000e-02 
  5.7222972397e+20   1.9325399057e+18   7.9252255614e+60   2.2245872600e-24   5.1871390088e-14  -1.0533036505e-07   2.0000000000e-02 
  5.7416226387e+20   1.9325399057e+18   7.9789370531e+60   2.2245872600e-24   5.1871390088e-14  -1.1119742281e-07   2.0000000000e-02 
  5.7609480378e+20   1.9325399057e+18   8.0328299398e+60   2.2245872600e-24   5.1871390088e-14  -1.1081701716e-07   2.0000000000e-02 
  5.7802734368e+20   1.9325399057e+18   8.0869042215e+60   2.2245872600e-24   5.1871390088e-14  -1.1996728109e-07   2.0000000000e-02 
  5.7995988359e+20   1.9325399057e+18   8.1411598981e+60   2.2245872600e-24   5.1871390088e-14  -9.5144119493e-08   2.0000000000e-02 
  5.8189242350e+20   1.9325399057e+18   8.1955969698e+60   2.2245872600e-24   5.1871390088e-14  -9.2902013087e-08   2.0000000000e-02 
  5.8382496340e+20   1.9325399057e+18   8.2502154364e+60   2.2245872600e-24   5.1871390088e-14  -1.1089989770e-07   2.0000000000e-02 
  5.8575750331e+20   1.9325399057e+18   8.3050152980e+60   2.2245872600e-24   5.1871390088e-14  -9.2205000474e-08   2.0000000000e-02 
  5.8769004321e+20   1.9325399057e+18   8.3599965545e+60   2.2245872600e-24   5.1871390088e-14  -7.2685407579e-08   2.0000000000e-02 
  5.8962258312e+20   1.9325399057e+18   8.4151592061e+60   2.2245872600e-24   5.1871390088e-14  -6.0476879716e-08   2.0000000000e-02 
  5.9155512302e+20   1.9325399057e+18   8.4705032527e+60   2.2245872600e-24   5.1871390088e-14  -4.7726917641e-08   2.0000000000e-02 
  5.9348766293e+20   1.9325399057e+18   8.5260286942e+60   2.2245872600e-24   5.1871390088e-14  -6.9775885535e-08   2.0000000000e-02 
  5.9542020284e+20   1.9325399057e+18   8.5817355307e+60   2.2245872600e-24   5.1871390088e-14  -1.0166700141e-07   2.0000000000e-02 
  5.9735274274e+20   1.9325399057e+18   8.6376237622e+60   2.2245872600e-24   5.1871390088e-14  -8.0181087589e-08   2.0000000000e-02 
  5.9928528265e+20   1.9325399057e+18   8.6936933887e+60   2.2245872600e-24   5.1871390088e-14  -6.4879884274e-08   2.0000000000e-02 
  6.0121782255e+20   1.9325399057e+18   8.7499444101e+60   2.2245872600e-24   5.1871390088e-14  -7.7022384660e-08   2.0000000000e-02 
